time,seconds_elapsed,relativeAltitude,pressure
1759949546758198800,-0.46980126953125,0,1014.1288757324219
1759949547779934700,0.551934814453125,0,1014.1288757324219
1759949548801986800,1.57398681640625,0,1014.1287994384766
1759949549824387800,2.596387939453125,0,1014.1287994384766
1759949550847186700,3.619186767578125,0.021138668060302734,1014.1265869140625
1759949551870322700,4.64232275390625,-0.036992549896240234,1014.1336822509766
1759949552024377900,4.7963779296875,0.010569095611572266,1014.1274261474609
1759949552972338700,5.744338623046875,-0.02642345428466797,1014.1322326660156
1759949553920447000,6.692447021484375,-0.02642345428466797,1014.1322326660156
1759949554868786000,7.640785888671875,-0.052846431732177734,1014.1353607177734
1759949555817224700,8.589224609375,-0.05813121795654297,1014.1361236572266
1759949556765820700,9.537820556640625,-0.0634160041809082,1014.1368865966797
1759949557714586600,10.486586669921875,-0.0634160041809082,1014.1368865966797
1759949558663438800,11.43543896484375,-0.0475616455078125,1014.1349029541016
1759949559612616700,12.38461669921875,-0.0475616455078125,1014.1349029541016
1759949560561892900,13.333892822265625,-0.05813121795654297,1014.1356658935547
1759949561511313700,14.283313720703125,-0.0634160041809082,1014.1363525390625
1759949562460903700,15.232903564453125,-0.07398509979248047,1014.1377258300781
1759949563410759700,16.182759765625,-0.0634160041809082,1014.1363525390625
1759949564360728800,17.132728759765627,-0.06870031356811523,1014.136962890625
1759949565310839600,18.082839599609375,-0.06870031356811523,1014.136962890625
1759949566261111800,19.03311181640625,-0.06870031356811523,1014.136962890625
1759949567211581700,19.983581787109376,-0.0792698860168457,1014.1385650634766
1759949568162225000,20.934224853515627,-0.0951237678527832,1014.1402435302734
1759949569112905700,21.88490576171875,-0.0951237678527832,1014.140625
1759949570063598800,22.835598876953124,-0.13211631774902344,1014.1449737548828
1759949571014434800,23.786434814453123,-0.1743931770324707,1014.1496276855469
1759949571965327600,24.73732763671875,-0.24309349060058594,1014.1580963134766
1759949572916377900,25.6883779296875,-0.30650901794433594,1014.1657257080078
1759949573867335700,26.639335693359374,-0.41748666763305664,1014.1792297363281
1759949574818240800,27.59024072265625,-0.4439096450805664,1014.18212890625
1759949575769327900,28.541327880859374,-0.6235876083374023,1014.2037200927734
1759949576720488700,29.49248876953125,-0.7768421173095703,1014.2224884033203
1759949577671664600,30.44366455078125,-0.8244037628173828,1014.2280578613281
1759949578622762800,31.3947626953125,-0.8244037628173828,1014.2280578613281
1759949579573869800,32.34586987304687,-0.8138341903686523,1014.2271423339844
1759949580525052700,33.297052734375,-0.7345647811889648,1014.2170715332031
1759949581476362800,34.24836279296875,-0.5971641540527344,1014.2006683349609
1759949582427693800,35.19969384765625,-0.5178947448730469,1014.1912078857422
1759949583378972000,36.15097192382812,-0.4597635269165039,1014.1840362548828
1759949584330174700,37.1021748046875,-0.4122018814086914,1014.1787719726562
1759949585281339600,38.05333959960937,-0.32764768600463867,1014.1680908203125
1759949586232444000,39.00444384765625,-0.29065513610839844,1014.163818359375
1759949587183516700,39.9555166015625,-0.25894737243652344,1014.1598510742188
1759949588134507800,40.9065078125,-0.25894737243652344,1014.1598510742188
1759949589085433600,41.85743359375,-0.2695169448852539,1014.1610717773438
1759949590036373800,42.80837377929687,-0.34350156784057617,1014.169921875
1759949590987277800,43.75927783203125,-0.41748666763305664,1014.1788482666016
1759949591938108700,44.71010864257813,-0.4597635269165039,1014.1841125488281
1759949592888776000,45.66077587890625,-0.4597635269165039,1014.1841125488281
1759949593839379000,46.61137890625,-0.41748666763305664,1014.1790008544922
1759949594789935900,47.56193579101563,-0.36992502212524414,1014.1732025146484
1759949595740429800,48.512429931640625,-0.35935544967651367,1014.1721343994141
1759949596690812000,49.46281201171875,-0.35935544967651367,1014.1721343994141
1759949597641062000,50.41306176757813,-0.4386253356933594,1014.1815948486328
1759949598591111700,51.36311157226562,-0.4861869812011719,1014.1876220703125
1759949599541126700,52.31312670898438,-0.49675607681274414,1014.1885375976562
1759949600491122700,53.26312280273437,-0.5337486267089844,1014.1930389404297
1759949601441091800,54.213091796875,-0.5337486267089844,1014.1930389404297
1759949602390921700,55.16292163085937,-0.5337486267089844,1014.1930389404297
1759949603340658700,56.11265869140625,-0.5337486267089844,1014.1930389404297
1759949604290391800,57.062391845703125,-0.5390334129333496,1014.1938781738281
1759949605239947800,58.01194775390625,-0.5390334129333496,1014.1938781738281
1759949606189335800,58.96133569335937,-0.5178947448730469,1014.1912841796875
1759949607138688800,59.91068872070313,-0.49675607681274414,1014.1886138916016
1759949608088007700,60.86000756835937,-0.49675607681274414,1014.1886138916016
1759949609037325800,61.80932592773438,-0.5548872947692871,1014.1958618164062
1759949609986584600,62.75858447265625,-0.5971641540527344,1014.2005920410156
1759949610935751700,63.707751708984375,-0.6341567039489746,1014.2053985595703
1759949611884852700,64.65685278320312,-0.6764340400695801,1014.2103576660156
1759949612833911600,65.60591162109375,-0.7451343536376953,1014.21875
1759949613782904800,66.55490478515625,-0.7451343536376953,1014.21875
1759949614731838700,67.50383862304687,-0.7239961624145508,1014.2157745361328
1759949615680656600,68.45265673828125,-0.6975727081298828,1014.2125701904297
1759949616629358800,69.40135888671875,-0.6658644676208496,1014.208984375
1759949617578011600,70.35001171875,-0.6394414901733398,1014.2060089111328
1759949618526621700,71.29862158203125,-0.6077337265014648,1014.2021942138672
1759949619475222800,72.24722290039062,-0.5971641540527344,1014.2006683349609
1759949620423707000,73.19570678710937,-0.5971641540527344,1014.2006683349609
1759949621372108800,74.14410888671875,-0.5918798446655273,1014.2002868652344
1759949622320435700,75.09243579101563,-0.5918798446655273,1014.2002868652344
1759949623268728800,76.04072875976563,-0.7557039260864258,1014.2195892333984
1759949624217040000,76.98903979492188,-0.7557039260864258,1014.2197418212891
1759949625165183700,77.93718383789063,-0.7609882354736328,1014.2206573486328
1759949626113595000,78.88559497070312,-0.8085498809814453,1014.2264556884766
1759949627062069800,79.83406982421874,-0.8085498809814453,1014.2264556884766
1759949628010662000,80.78266186523437,-0.7451343536376953,1014.2185974121094
1759949628959307800,81.73130786132812,-0.7451343536376953,1014.2185974121094
1759949629907949600,82.67994946289062,-0.7451343536376953,1014.2185974121094
1759949630856594000,83.62859399414063,-0.6711492538452148,1014.2096710205078
1759949631805288000,84.57728784179687,-0.6235876083374023,1014.2035675048828
1759949632754035700,85.52603564453125,-0.6235876083374023,1014.2035675048828
1759949633702773800,86.47477368164063,-0.6077337265014648,1014.2018127441406
1759949634651487000,87.42348706054688,-0.6394414901733398,1014.2058563232422
1759949635600226800,88.37222680664063,-0.6394414901733398,1014.2057037353516
1759949636548940500,89.3209404296875,-0.6394414901733398,1014.2057037353516
1759949637497590800,90.2695908203125,-0.6024489402770996,1014.2014312744141
1759949638446239700,91.21823974609374,-0.5971641540527344,1014.2007446289062
1759949639394921700,92.16692163085938,-0.5813102722167969,1014.1988372802734
1759949640343666000,93.115666015625,-0.5601720809936523,1014.1960144042969
1759949641292386800,94.06438671875,-0.5548872947692871,1014.1957092285156
1759949642241141800,95.01314184570313,-0.5548872947692871,1014.1957092285156
1759949643189876000,95.9618759765625,-0.5548872947692871,1014.1957855224609
1759949644138510600,96.91051049804688,-0.8138341903686523,1014.2265319824219
1759949645087186000,97.85918603515626,-0.8138341903686523,1014.2265319824219
1759949646035943700,98.80794360351562,-0.8138341903686523,1014.2265319824219
1759949646984696800,99.75669677734375,-0.8402576446533203,1014.2301940917969
1759949647933523700,100.70552368164063,-0.9406661987304688,1014.2422485351562
1759949648882345700,101.654345703125,-0.9406661987304688,1014.2422485351562
1759949649831196000,102.60319580078125,-0.8878192901611328,1014.2355346679688
1759949650780193800,103.55219384765626,-0.8878192901611328,1014.2355346679688
1759949651729337600,104.50133764648437,-0.8878192901611328,1014.2353820800781
1759949652678694000,105.45069384765625,-0.9142427444458008,1014.2388153076172
1759949653628092700,106.4000927734375,-0.8508272171020508,1014.2315673828125
1759949654577456600,107.34945654296875,-0.8508272171020508,1014.2315673828125
1759949655526745900,108.29874584960938,-0.8138341903686523,1014.2268371582031
1759949656476063700,109.24806372070313,-0.8138341903686523,1014.2268371582031
1759949657425329700,110.19732958984375,-0.8719654083251953,1014.2339324951172
1759949658374556000,111.14655590820313,-0.9618043899536133,1014.2448425292969
1759949659323878000,112.0958779296875,-0.9776582717895508,1014.2466735839844
1759949660273096000,113.04509594726562,-1.0040817260742188,1014.2495727539062
1759949661222331600,113.99433154296875,-0.9776582717895508,1014.2466735839844
1759949662171539700,114.94353979492188,-0.6817188262939453,1014.2111206054688
1759949663120605700,115.89260571289063,-0.6130185127258301,1014.2024993896484
1759949664069711600,116.84171166992188,-0.46504831314086914,1014.1847229003906
1759949665018737000,117.79073681640625,-0.46504831314086914,1014.1847229003906
1759949665967798800,118.739798828125,-0.46504831314086914,1014.1851806640625
1759949666916798700,119.688798828125,-0.5654563903808594,1014.1972351074219
1759949667865839600,120.63783959960938,-0.5126099586486816,1014.190673828125
1759949668814858800,121.58685864257812,-0.5654563903808594,1014.1972351074219
1759949669763910000,122.53590991210937,-0.5126099586486816,1014.190673828125
1759949670712929800,123.4849296875,-0.6975727081298828,1014.2127990722656
1759949671661832700,124.43383276367187,-0.6975727081298828,1014.2127990722656
1759949672610620700,125.38262060546874,-0.7715578079223633,1014.2215728759766
1759949673559317800,126.33131787109374,-0.8561115264892578,1014.2317962646484
1759949674508033800,127.28003369140625,-0.8561115264892578,1014.2317962646484
1759949675456736800,128.22873681640624,-0.8561115264892578,1014.2317962646484
1759949676405418800,129.1774187011719,-0.9089584350585938,1014.2379760742188
1759949677354044700,130.12604467773437,-0.6394414901733398,1014.2060089111328
1759949678302665700,131.07466577148438,-0.6341567039489746,1014.2050933837891
1759949679251132700,132.0231325683594,-0.6077337265014648,1014.2023468017578
1759949680199657700,132.97165771484376,-0.32236289978027344,1014.1677856445312
1759949681148053800,133.9200537109375,-0.31179380416870117,1014.1664886474609
1759949682096393700,134.86839379882812,-0.31179380416870117,1014.1664886474609
1759949683044639700,135.8166396484375,-0.31179380416870117,1014.1664886474609
1759949683992881700,136.76488159179686,-0.5178947448730469,1014.1911315917969
1759949684941111800,137.71311181640624,-0.6817188262939453,1014.2106628417969
1759949685889311700,138.66131176757813,-0.8402576446533203,1014.2299652099609
1759949686837460700,139.60946069335938,-1.1520519256591797,1014.2671203613281
1759949687785550800,140.55755078125,-1.2207517623901367,1014.2755889892578
1759949688733694000,141.50569384765626,-1.2207517623901367,1014.2755889892578
1759949689681744000,142.45374389648438,-0.9565200805664062,1014.2440795898438
1759949690629888800,143.401888671875,-0.9565200805664062,1014.2440795898438
1759949691577965800,144.3499658203125,-0.9565200805664062,1014.2440795898438
1759949692526007600,145.29800756835937,-0.8032655715942383,1014.2253112792969
1759949693474018800,146.24601879882812,-0.8032655715942383,1014.2253112792969
1759949694422023700,147.19402368164063,-0.8931045532226562,1014.2365264892578
1759949695369883600,148.14188354492188,-0.8931045532226562,1014.2365264892578
1759949696317728800,149.08972875976562,-0.8825349807739258,1014.2348480224609
1759949697265431800,150.03743188476562,-0.8825349807739258,1014.2348480224609
1759949698213110800,150.98511083984374,-0.9512348175048828,1014.2430114746094
1759949699160822800,151.93282275390624,-0.9723739624023438,1014.24560546875
1759949700108474600,152.880474609375,-1.0146512985229492,1014.2512512207031
1759949701056135700,153.8281357421875,-1.0199356079101562,1014.2515563964844
1759949702003740700,154.77574072265625,-1.0727815628051758,1014.2582702636719
1759949702951310800,155.72331079101562,-1.1203441619873047,1014.263916015625
1759949703898889700,156.6708896484375,-1.1626205444335938,1014.2686462402344
1759949704846393900,157.61839379882812,-1.1784744262695312,1014.2707061767578
1759949705793913900,158.56591381835938,-1.2366056442260742,1014.27734375
1759949706741370600,159.51337060546874,-1.2418899536132812,1014.2780303955078
1759949707688855600,160.46085546875,-2.0451555252075195,1014.375
1759949708636213800,161.4082138671875,-2.0451555252075195,1014.375
1759949709583527000,162.35552685546875,-1.0516433715820312,1014.2556762695312
1759949710530868700,163.30286865234376,-0.8825349807739258,1014.2353057861328
1759949711478317800,164.25031787109376,-0.8719654083251953,1014.2335510253906
1759949712425717800,165.1977177734375,-0.0792698860168457,1014.1383361816406
1759949713373269800,166.14526977539063,-0.0792698860168457,1014.1383361816406
1759949714320831700,167.09283178710936,-0.6130185127258301,1014.2024993896484
1759949715268491800,168.04049169921876,-0.8508272171020508,1014.2310333251953
1759949716216208600,168.98820874023437,-0.8613967895507812,1014.2323303222656
1759949717164091000,169.9360908203125,-0.8613967895507812,1014.2323303222656
1759949718112081700,170.88408154296874,-0.8613967895507812,1014.2323303222656
1759949719060198700,171.83219873046875,-0.8825349807739258,1014.2348480224609
1759949720008476700,172.7804765625,-0.8825349807739258,1014.2350006103516
1759949720956824800,173.72882495117187,-0.8825349807739258,1014.2350006103516
1759949721905365800,174.67736572265625,-0.8825349807739258,1014.2350006103516
1759949722854023700,175.62602368164062,-0.8878192901611328,1014.2356109619141
1759949723802802700,176.574802734375,-0.8878192901611328,1014.2356109619141
1759949724751657700,177.52365771484375,-0.8138341903686523,1014.2266082763672
1759949725700443000,178.47244287109376,-0.8138341903686523,1014.2266082763672
1759949726649367800,179.42136791992186,-0.8138341903686523,1014.2266082763672
1759949727598345700,180.370345703125,-0.8085498809814453,1014.2258453369141
1759949728547448800,181.31944873046876,-0.8032655715942383,1014.2254638671875
1759949729496588800,182.2685888671875,-0.8032655715942383,1014.2254638671875
1759949730445836800,183.2178369140625,-0.8244037628173828,1014.2280578613281
1759949731395161900,184.16716186523436,-0.8402576446533203,1014.2300415039062
1759949732344572700,185.11657275390624,-0.9300966262817383,1014.2405700683594
1759949733293939000,186.06593896484375,-0.9406661987304688,1014.2420959472656
1759949734243391700,187.01539184570314,-1.0146512985229492,1014.2512512207031
1759949735192834800,187.96483471679687,-1.0252199172973633,1014.2523956298828
1759949736142268700,188.9142685546875,-1.0252199172973633,1014.2523956298828
1759949737091747800,189.86374780273437,-1.0252199172973633,1014.2523956298828
1759949738041276700,190.81327661132812,-1.0622129440307617,1014.2567443847656
1759949738990727700,191.76272778320313,-1.0622129440307617,1014.2569732666016
1759949739940124700,192.71212475585938,-1.0622129440307617,1014.2567443847656
1759949740889596700,193.6615966796875,-0.9935121536254883,1014.2485809326172
1759949741839074800,194.61107470703126,-0.9406661987304688,1014.2420959472656
1759949742788515800,195.56051586914063,-0.8878192901611328,1014.2359161376953
1759949743738010600,196.5100107421875,-0.8878192901611328,1014.2356109619141
1759949744687574800,197.45957470703124,-0.8561115264892578,1014.2317962646484
1759949745637173800,198.409173828125,-0.8032655715942383,1014.2255401611328
1759949746586903800,199.35890380859374,-0.7715578079223633,1014.2214202880859
1759949747536732700,200.30873266601563,-0.7715578079223633,1014.2214202880859
1759949748486495700,201.25849584960937,-0.7821264266967773,1014.2226409912109
1759949749436222000,202.20822192382812,-0.7821264266967773,1014.2227935791016
1759949750386062800,203.15806274414064,-0.9036731719970703,1014.2374420166016
1759949751336007000,204.1080068359375,-1.0305051803588867,1014.2528533935547
1759949752286092800,205.0580927734375,-1.3053064346313477,1014.285888671875
1759949753236330800,206.00833081054688,-1.3634366989135742,1014.2929077148438
1759949754186505000,206.9585048828125,-1.532546043395996,1014.3129730224609
1759949755136694800,207.90869482421874,-1.6223840713500977,1014.3238067626953
1759949756086964700,208.85896484375,-1.6435232162475586,1014.3268585205078
1759949757037241600,209.80924169921875,-1.6488075256347656,1014.3272399902344
1759949757987590000,210.75958984375,-1.6805152893066406,1014.3309020996094
1759949758937876700,211.70987670898438,-1.685800552368164,1014.3312835693359
1759949759888206800,212.6602067871094,-1.7280769348144531,1014.3367004394531
1759949760838499800,213.61049975585937,-1.7439308166503906,1014.3386077880859
1759949761788756700,214.5607568359375,-1.913039207458496,1014.3588256835938
1759949762739017700,215.51101782226561,-1.9923095703125,1014.3686676025391
1759949763689233700,216.46123364257812,-1.9923095703125,1014.3686676025391
1759949764639384800,217.411384765625,-1.960601806640625,1014.3647003173828
1759949765589336800,218.3613369140625,-1.9288930892944336,1014.3606567382812
1759949766539204900,219.31120483398436,-1.780923843383789,1014.3427276611328
1759949767488976600,220.2609765625,-1.7280769348144531,1014.3366241455078
1759949768438801000,221.21080078125,-1.7280769348144531,1014.3366241455078
1759949769388542700,222.16054272460937,-1.7280769348144531,1014.3366241455078
1759949770338365700,223.11036572265624,-1.7597846984863281,1014.3402099609375
1759949771288109800,224.06010986328124,-1.717508316040039,1014.3353271484375
1759949772237792800,225.00979272460938,-1.627669334411621,1014.3247985839844
1759949773187506700,225.95950659179687,-1.5853919982910156,1014.3198394775391
1759949774137232000,226.90923193359376,-1.5061225891113281,1014.3102264404297
1759949775086918000,227.85891796875,-1.5008373260498047,1014.3095397949219
1759949776036506600,228.80850659179688,-1.5008373260498047,1014.3095397949219
1759949776985958000,229.7579580078125,-1.5061225891113281,1014.3101501464844
1759949777935323600,230.70732373046874,-1.5114068984985352,1014.3107604980469
1759949778884587800,231.656587890625,-1.6435232162475586,1014.3268585205078
1759949779833630000,232.6056298828125,-1.691084861755371,1014.332275390625
1759949780782682600,233.5546826171875,-1.722792625427246,1014.3360900878906
1759949781731507700,234.5035078125,-1.780923843383789,1014.3427276611328
1759949782680231000,235.45223095703125,-1.780923843383789,1014.3427276611328
1759949783629098800,236.4010986328125,-1.5166912078857422,1014.3109893798828
1759949784577836800,237.3498369140625,-1.4744148254394531,1014.3060302734375
1759949785526444800,238.29844482421876,-1.4638452529907227,1014.3049621582031
1759949786475179800,239.2471796875,-1.4638452529907227,1014.3049621582031
1759949787423975700,240.1959755859375,-1.5272607803344727,1014.3124389648438
1759949788372740900,241.1447409667969,-1.6435232162475586,1014.3264770507812
1759949789321452800,242.0934528808594,-1.717508316040039,1014.3355560302734
1759949790270117600,243.04211767578124,-1.7439308166503906,1014.3386840820312
1759949791218734800,243.99073486328126,-1.7439308166503906,1014.3386840820312
1759949792167287800,244.93928784179687,-1.7333621978759766,1014.337158203125
